,speed (m/s),speed difference (m/s),distance (m)
50,2.9,4.130000000000001,18.462663973440748
51,3.56,4.559999999999999,23.853411423412247
52,4.65,4.5,28.672921551809683
53,5.81,4.340000000000001,33.10272668027707
54,7.17,4.09,37.33657282006765
55,8.77,3.5199999999999996,41.08715193183729
56,10.2,3.0200000000000014,44.319261655161974
57,11.61,2.3000000000000007,46.99233510352149
58,12.98,1.4499999999999993,48.80633822362064
59,14.32,0.5600000000000005,49.77702937860094
60,15.6,-0.16000000000000014,49.91678593889484
61,16.86,-0.9499999999999993,49.33000727877808
62,18.0,-1.5700000000000003,48.03228236994088
63,19.18,-2.280000000000001,46.038312478212916
64,19.8,-2.4499999999999993,43.55530419241216
65,19.68,-1.9199999999999982,41.40734489629769
66,19.58,-1.4499999999999993,39.74628359806286
67,19.3,-0.8500000000000014,38.66381043329145
68,19.05,-0.41000000000000014,38.01318360036031
69,18.81,0.240000000000002,37.94755093173349
70,18.7,0.7899999999999991,38.50014445756575
71,18.74,1.2100000000000009,39.516377920206374
72,18.94,1.4399999999999977,40.841340071036264
73,19.35,1.3099999999999987,42.24075685986144
74,19.85,0.9799999999999969,43.372582797773056
75,20.32,0.8099999999999987,44.232315643280195
76,20.75,0.870000000000001,45.014117943334426
77,21.16,1.0199999999999996,45.9562585119737
78,21.61,1.1700000000000017,47.06161948191556
79,22.2,1.2100000000000009,48.28569296276323
80,22.87,1.0,49.38797271364715
81,23.5,0.8099999999999987,50.29109596390806
82,24.1,0.5899999999999999,50.92891787851957
83,24.63,0.4299999999999997,51.446716094407414
84,25.06,0.3500000000000014,51.88127765679143
85,25.43,-0.019999999999999574,52.00268164396576
86,25.77,-0.3299999999999983,51.78252741659355
87,25.95,-0.4499999999999993,51.36317643739646
88,26.0,-0.4299999999999997,50.926308366215515
89,25.97,-0.29999999999999716,50.550997974013015
90,25.94,-0.22000000000000242,50.25366770635996
91,25.88,-0.09999999999999787,50.107178145238194
92,25.84,0.019999999999999574,50.07524593997733
93,25.78,0.10999999999999943,50.09964234542754
94,25.77,0.15000000000000213,50.22947902159452
95,25.74,0.14000000000000057,50.4035868275458
96,25.74,0.0400000000000027,50.51212795427333
97,25.75,-0.4200000000000017,50.268923938862706
98,25.79,-0.9199999999999982,49.566559539142425
99,25.69,-1.2699999999999996,48.45576662454096
100,25.54,-1.5700000000000003,46.99527044911302
101,25.2,-1.7100000000000009,45.31399462365496
102,24.77,-1.7399999999999984,43.58412388460554
103,24.36,-1.759999999999998,41.81103359786264
104,23.95,-1.8200000000000003,40.01124133544235
105,23.56,-1.9199999999999982,38.13046571259496
106,23.11,-1.9899999999999984,36.151249063498355
107,22.58,-2.009999999999998,34.152678611953476
108,22.07,-2.210000000000001,32.042805590659086
109,21.26,-1.9800000000000004,29.91493817122677
110,20.13,-1.3000000000000007,28.27931594692261
111,18.92,-0.5,27.449115391467508
112,17.85,0.16999999999999815,27.331329263718168
113,17.07,0.6799999999999997,27.785550009218387
114,16.49,1.3200000000000003,28.83104813260917
115,16.1,1.9899999999999984,30.551441256400274
116,16.09,2.370000000000001,32.7873147271844
117,16.36,2.4200000000000017,35.14216470712041
118,16.94,2.169999999999998,37.37663046604505
119,17.57,2.0199999999999996,39.45510478325665
120,18.19,2.09,41.51677570330235
121,18.95,2.0700000000000003,43.60890146584469
122,19.77,1.6600000000000001,45.44303051603673
123,20.57,1.1600000000000001,46.75259917689093
124,21.31,0.75,47.64233338355347
125,21.96,0.5199999999999996,48.22233669310293
126,22.49,0.45000000000000284,48.725747476233416
127,22.87,0.3099999999999987,49.09687397689574
128,23.31,-0.129999999999999,49.163817667414186
129,23.58,-0.5399999999999991,48.81253772097409
130,23.66,-0.6900000000000013,48.14225690482645
131,23.7,-0.5299999999999976,47.508714196825935
132,23.66,-0.3099999999999987,47.06148079000149
133,23.64,-0.030000000000001137,46.89417105632406
134,23.59,0.28999999999999915,47.032896708075725
135,23.63,0.33000000000000185,47.31504894605238
136,23.75,0.05999999999999872,47.46335256614109
137,23.83,-0.10999999999999943,47.40069848160787
138,23.83,-0.3099999999999987,47.16799141230597
139,23.73,-0.35999999999999943,46.82510730601118
140,23.6,-0.3000000000000007,46.49240043428104
141,23.51,-0.10000000000000142,46.29612378488934
142,23.44,0.16000000000000014,46.334582157096094
143,23.4,0.5500000000000007,46.72831483770812
144,23.44,1.0,47.5327117436849
145,23.72,1.0800000000000018,48.59485333422927
146,24.07,1.2399999999999984,49.776455034605924
147,24.57,0.870000000000001,50.834925511276545
148,25.13,0.33999999999999986,51.390892704293975
149,25.57,-0.03999999999999915,51.50927306207172
150,25.85,-0.33000000000000185,51.26431878001473
151,25.94,-0.490000000000002,50.8407675815078
152,25.89,-0.4499999999999993,50.391035779773084
153,25.79,-0.35999999999999943,50.00655490333179
154,25.65,-0.509999999999998,49.5464098757177
155,25.56,-0.6999999999999993,48.937108119198776
156,25.46,-0.870000000000001,48.12059464672328
157,25.31,-1.0700000000000003,47.16611264005587
158,25.07,-1.2699999999999996,45.9996912992533
159,24.81,-1.4199999999999982,44.655431847079704
160,24.43,-1.4400000000000013,43.18149442620384
161,24.01,-1.4200000000000017,41.73114013835497
162,23.62,-1.4400000000000013,40.301645872488024
163,23.23,-1.4000000000000021,38.89768996305904
164,22.82,-1.2972727272727305,35.4950674814976
165,22.43,-1.2145454545454548,32.49152997460662
166,22.02,-1.1118181818181831,29.90512105543412
167,21.61,-1.0090909090909115,27.746885230527486
168,21.18,-0.8863636363636367,26.02908860229446
169,20.6,-0.6136363636363669,24.80847396110776
170,20.09,-0.4109090909090902,24.110087447522282
171,19.58,-0.20818181818181714,23.919964360700984
172,19.07,-0.005454545454547599,24.2143904974853
173,18.58,0.17727272727272947,24.958267958866262
174,18.17,0.2799999999999976,26.16502567177402
175,17.79,0.9800000000000004,26.847449071698822
176,17.41,1.8299999999999983,28.292213821043404
177,17.35,2.34,30.40117122820612
178,17.68,2.4800000000000004,32.84013895917527
179,18.25,2.4200000000000017,35.29107929874621
180,18.9,2.240000000000002,37.608881031510656
181,19.54,2.0700000000000003,39.76047526076573
182,20.18,1.8900000000000006,41.72005795428718
183,20.79,1.620000000000001,43.478777595949225
184,21.4,1.0200000000000031,44.7741444569337
185,21.9,0.45300000000000296,45.54996062589494
186,22.26,0.0259999999999998,45.998314801642955
187,22.52,-0.3009999999999984,46.20328321612246
188,22.72,-0.5679999999999978,46.182161177189215
189,22.91,-0.8249999999999993,45.92421966202679
190,23.04,-1.0219999999999985,45.51064328571412
191,23.09,-1.1389999999999993,44.94017690117521
192,23.11,-1.225999999999999,44.313817882728024
193,23.03,-1.213000000000001,43.700168722846534
194,22.82,-1.0700000000000003,43.2306763688904
195,22.52,-1.1699999999999982,42.15500835521499
196,22.13,-1.1999999999999993,40.97933577141384
197,21.73,-1.1700000000000017,39.78976813895103
198,21.33,-1.3599999999999994,38.51865093041182
199,20.93,-1.4899999999999984,37.05117921208905
200,20.53,-1.0899999999999999,35.755468780977026
201,20.17,-0.2325000000000017,37.14836359881242
202,19.79,0.6450000000000031,38.9090828322098
203,19.53,1.4024999999999999,40.998019978472286
204,19.5,1.9299999999999997,43.21308430558484
205,19.87,2.057500000000001,45.2646388324542
206,20.57,1.8550000000000004,46.73904306330243
207,21.39,1.5325000000000024,47.43098000257488
208,22.2,1.2200000000000024,47.307760395624065
209,22.83,0.5900000000000034,48.11830650318269
210,23.26,0.3299999999999983,48.60773317759651
211,23.53,0.4800000000000004,49.032916987022425
212,23.83,0.4700000000000024,49.53716081567469
213,24.08,0.5100000000000016,50.02602018040833
214,24.37,0.4499999999999993,50.50459149528654
215,24.68,0.4200000000000017,50.96108454909163
216,24.98,0.28000000000000114,51.30384182813757
217,25.28,-0.20000000000000284,51.32497622560712
218,25.48,-0.7699999999999996,50.77058017124965
219,25.53,-0.9690000000000012,49.34385544409534
220,25.48,-1.0680000000000014,48.172839429490175
221,25.34,-1.0769999999999982,47.22557446137038
222,25.14,-1.0259999999999998,46.50711923698573
223,24.86,-0.8949999999999996,45.97302262110584
224,24.62,-0.804000000000002,45.571924095140986
225,24.43,-0.7630000000000017,45.294199216515295
226,24.31,-0.791999999999998,45.04322547311563
227,24.28,-0.9110000000000014,44.837857145851316
228,24.13,-0.9100000000000001,44.75753259710232
229,23.95,-1.0799999999999983,43.74253867124122
230,23.71,-1.2800000000000011,42.53834923326568
231,23.36,-1.3399999999999999,41.231110067915864
232,22.99,-1.3999999999999986,39.85940692423178
233,22.58,-1.3599999999999994,38.468924872797864
234,22.2,-1.4399999999999977,37.07412384879125
235,21.81,-1.5,35.61625190352925
236,21.36,-1.509999999999998,34.12336187613274
237,20.94,-1.5500000000000007,32.60741022974065
238,20.43,-1.5300000000000011,31.104278024958873
239,19.9,-0.7109090909090909,30.25741601570178
240,19.36,0.11818181818181728,29.96560573499616
241,18.86,0.9072727272727263,30.23211258413129
242,18.37,1.6863636363636338,30.9563327887864
243,17.97,2.375454545454545,32.122332295694044
244,17.53,3.104545454545452,33.68908523552703
245,17.29,3.633636363636363,35.59972622869492
246,17.41,3.802727272727271,37.546423210665075
247,18.0,3.50181818181818,39.08461986692759
248,18.75,3.0409090909090892,39.93068975441926
249,19.51,2.5699999999999967,40.03307875648574
250,20.29,2.3599999999999994,42.50306743774744
251,21.08,1.9300000000000033,44.636969521232864
252,21.86,1.4400000000000013,46.31366950911304
253,22.54,1.0899999999999999,47.53520808412509
254,23.16,0.6600000000000001,48.38712260283046
255,23.61,0.4400000000000013,48.92523784197954
256,23.99,0.2700000000000031,49.250062949594025
257,24.3,0.16999999999999815,49.448300832066984
258,24.51,0.05999999999999872,49.54903461617458
259,24.69,-0.0027272727272737995,49.93735458661702
260,24.78,0.024545454545453538,50.306431290178146
261,24.87,0.051818181818180875,50.68823273454618
262,24.91,0.12909090909090892,51.02861877627239
263,24.9,0.2563636363636377,51.331133700795846
264,24.88,0.39363636363636445,51.60936920285023
265,24.95,0.44090909090909136,51.82537677821408
266,25.0,0.5081818181818178,51.95256473586411
267,25.15,0.47545454545454646,51.953838520791464
268,25.33,0.41272727272727394,51.769085807057536
269,25.48,0.379999999999999,51.39597601038448
270,25.67,0.29999999999999716,51.73645720650612
271,25.82,-0.129999999999999,51.832633521461155
272,25.92,-0.6900000000000013,51.381963995956745
273,25.89,-1.1400000000000006,50.43365432174456
274,25.78,-1.3900000000000006,49.15603845884181
275,25.56,-1.3999999999999986,47.78490789607268
276,25.22,-1.25,46.498751066499395
277,24.89,-1.0,45.4217885724887
278,24.55,-0.7300000000000004,44.58826254166652
279,24.26,-0.5200000000000031,44.00232132040581
280,23.96,-0.6300000000000026,41.45292554445971
281,23.67,-0.7500000000000036,39.22893478041032
282,23.41,-0.9000000000000021,37.30823724184824
283,23.09,-0.990000000000002,35.64453593257941
284,22.75,-1.0600000000000023,34.34370829742793
285,22.37,-1.0899999999999999,33.397626783627615
286,21.95,-1.0799999999999983,32.81803253241647
287,21.59,-1.129999999999999,32.57872384279381
288,21.21,-1.1600000000000001,32.70390936848685
289,20.77,-1.129999999999999,33.22749714145049
290,20.37,-1.1400000000000006,34.14771031019609
291,19.92,-1.120000000000001,33.00484572321604
292,19.52,-1.1799999999999997,31.845589538608916
293,19.09,-1.0599999999999987,30.720171305901662
294,18.68,-0.6099999999999994,29.866496462121297
295,18.28,0.14999999999999858,29.679220874910328
296,17.92,1.0999999999999979,30.358316104170626
297,17.64,2.009999999999998,31.974529825228323
298,17.76,2.348749999999999,36.21131288095331
299,18.33,2.2375000000000007,40.07777110854306
300,19.12,1.9062499999999964,43.24178865531608
301,19.91,1.5749999999999993,45.615001693300265
302,20.67,1.2737499999999997,47.210374074043386
303,21.43,0.9725000000000001,48.054471398810726
304,22.06,0.8012499999999996,48.20278453990477
305,22.57,0.75,47.77114058430716
306,23.07,0.46999999999999886,48.36770630560521
307,23.44,0.23999999999999844,48.726528654247915
308,23.74,0.060000000000002274,48.85307065084474
309,23.99,-0.129999999999999,48.828282044402435
310,24.15,-0.22999999999999687,48.62731135551417
311,24.21,-0.3100000000000023,48.340099905472314
312,24.2,-0.2637500000000017,48.173946882025795
313,24.08,-0.10749999999999815,48.07190620202268
314,23.99,0.01875000000000071,48.06172738848681
315,23.94,0.10500000000000043,48.13151034943735
316,23.95,0.13125000000000142,48.22475334774571
317,23.96,0.15749999999999886,48.32653867092982
318,24.04,0.11375000000000313,48.355962672251955
319,24.15,0.0400000000000027,48.3007883090946
320,24.22,-0.129999999999999,48.22047122360143
321,24.24,-0.31999999999999673,47.93118368216657
322,24.27,-0.41000000000000014,47.591730272031214
323,24.18,-0.17999999999999972,47.3288022278324
324,24.08,0.10000000000000142,47.28638475113832
325,24.08,0.3100000000000023,47.49462986757778
326,24.13,0.41000000000000014,47.85719223941395
327,24.25,0.0,47.46682773966292
328,24.4,-0.4399999999999977,46.9630985469093
329,24.51,-0.8400000000000034,46.32391067362554
330,24.56,-1.1799999999999997,45.61665012119536
331,24.48,-1.3900000000000006,44.92054811083806
332,24.34,-1.5400000000000027,44.324194164585535
333,24.11,-1.6000000000000014,43.900045961587736
334,23.78,-1.5600000000000023,43.764085312913615
335,23.36,-1.5999999999999979,42.152799493824226
336,22.88,-1.5899999999999999,40.58339983513723
337,22.43,-1.6099999999999994,38.99683329358436
338,21.96,-1.6099999999999994,37.40238435778306
339,21.45,-1.5799999999999983,35.80516995417265
340,20.98,-1.5399999999999991,34.25168515981966
341,20.46,-1.5,32.72136641991523
342,20.0,-1.4699999999999989,31.20442507236211
343,19.44,-1.1400000000000006,29.89840582048788
344,18.93,-0.46000000000000085,29.120208171057644
345,18.48,0.3200000000000003,29.075724694368184
346,18.1,1.1199999999999974,29.803933488897698
347,17.79,1.9100000000000001,31.41218596665015
348,17.89,2.3599999999999994,33.63336993833771
349,18.38,2.400000000000002,36.04447798234374
350,19.07,2.259999999999998,38.36278878410691
351,19.78,1.8999999999999986,40.435886782384436
352,20.45,1.7100000000000009,42.22611097502853
353,21.05,1.6999999999999993,43.8873155708074
354,21.65,1.6700000000000017,45.57519068180892
355,22.26,1.7099999999999973,47.25194228341813
356,22.93,1.3599999999999994,48.80970318768171
357,23.69,0.75,49.84083449045275
358,24.26,0.16000000000000014,50.304720328884436
359,24.69,-0.46000000000000085,50.06256067252029
360,24.89,-0.8900000000000006,49.35241393580572
361,24.9,-1.0499999999999972,48.37289836213757
362,24.76,-1.0700000000000003,47.29549838767878
363,24.57,-0.8894117647058799,46.70178309073042
364,24.33,-0.6588235294117624,46.33862867844968
365,24.09,-0.4282352941176448,46.254864708913985
366,23.89,-0.23764705882353,46.39449922576141
367,23.79,-0.14705882352940947,46.69175512037901
368,23.79,-0.15647058823529036,47.06265931167369
369,23.86,-0.2358823529411751,47.41486090903739
370,24.04,-0.4252941176470557,47.672335939372914
371,24.24,-0.6347058823529395,47.71981563386278
372,24.42,-0.8241176470588236,47.590967368934365
373,24.59,-1.0035294117647062,47.31214696514025
374,24.61,-1.0329411764705867,46.94967464382629
375,24.61,-1.0423529411764676,46.58566877768065
376,24.51,-0.9517647058823542,46.12126267374698
377,24.41,-0.8611764705882337,45.5875176672807
378,24.27,-0.7305882352941175,45.15309893829722
379,24.08,-0.5499999999999972,44.88692348129694
380,23.86,-0.7100000000000009,44.25103301805872
381,23.61,-0.9499999999999993,43.41802327126307
382,23.33,-1.1199999999999974,42.38545868772366
383,22.99,-1.2199999999999989,41.22789856705409
384,22.57,-1.2199999999999989,40.00040293082663
385,22.16,-1.2199999999999989,38.806622818673006
386,21.74,-1.1699999999999982,37.59938773503962
387,21.33,-1.129999999999999,36.44238350860529
388,20.93,-1.0700000000000003,35.34681393925808
389,20.52,-1.0500000000000007,34.26888800757624
